rayon temp g pression etat
2631200.0 110.0 1.4286205756499109 0.0 1 903.5341155197 0.002
2630200.0 110.49325269774202 1.4289492933584593 1291104.4358971359 1 903.5890309780573 0.0020015207968975745
2629200.0 110.98760170381496 1.4292786284400822 2582584.926766956 1 903.64404105285 0.0020030433290723028
2628200.0 111.48305226643579 1.429608581790271 3874442.2027397505 0 964.1099950931249 0.002004567599165197
2627200.0 111.48305226643579 1.4298884866834325 5253011.984619831 0 964.7366177212522 0.002006093609822296
2626200.0 111.48305226643579 1.4301684937853143 6632747.900085772 0 965.3637704101003 0.002007621363694676
2625200.0 111.48305226643579 1.4304486032075814 8013651.157056104 0 965.991453708723 0.002009150863438463
2624200.0 111.48305226643579 1.4307288150621598 9395722.96498096 0 966.6196681668708 0.0020106821117148433
2623200.0 111.48305226643579 1.4310091294612364 10778964.534844544 0 967.2484143349907 0.0020122151111900757
2622200.0 111.48305226643579 1.4312895465172604 12163377.079167612 0 967.8776927642283 0.002013749864535503
2621200.0 111.48305226643579 1.431570066342944 13548961.812009953 0 968.5075040064295 0.0020152863744275643
2620200.0 111.48305226643579 1.4318506890512621 14935719.948972877 0 969.1378486141398 0.0020168246435478053
2619200.0 111.48305226643579 1.4321314147554551 16323652.707201703 0 969.7687271406074 0.0020183646745828908
2618200.0 111.48305226643579 1.4324122435690272 17712761.30538826 0 970.4001401397833 0.0020199064702246163
2617200.0 111.48305226643579 1.432693175605749 19103046.963773392 0 971.032088166322 0.00202145003316992
2616200.0 111.48305226643579 1.4329742109796568 20494510.904149458 0 971.6645717755839 0.0020229953661208945
2615200.0 111.48305226643579 1.433255349805055 21887154.34986285 0 972.2975915236353 0.0020245424717847986
2614200.0 111.48305226643579 1.433536592196515 23280978.525816523 0 972.9311479672507 0.0020260913528740683
2613200.0 111.48305226643579 1.4338179382688774 24675984.658472497 0 973.5652416639125 0.0020276420121063308
2612200.0 111.48305226643579 1.4340993881372515 26072173.975854408 0 974.1998731718134 0.002029194452204414
2611200.0 111.48305226643579 1.4343809419170177 27469547.707550034 0 974.8350430498567 0.0020307486758963595
2610200.0 111.48305226643579 1.434662599723826 28868107.084713828 0 975.4707518576585 0.0020323046859154355
2609200.0 111.48305226643579 1.4349443616735988 30267853.34006948 0 976.1070001555474 0.0020338624850001477
2608200.0 111.48305226643579 1.435226227882531 31668787.70791246 0 976.7437885045669 0.002035422075894251
2607200.0 111.48305226643579 1.4355081984670897 33070911.42411257 0 977.3811174664762 0.0020369834613467625
2606200.0 111.48305226643579 1.4357902735440167 34474225.726116516 0 978.0189876037506 0.002038546644111974
2605200.0 111.48305226643579 1.4360724532303273 35878731.852950476 0 978.6573994795842 0.002040111626949462
2604200.0 111.48305226643579 1.4363547376433137 37284431.04522266 0 979.2963536578898 0.0020416784126241023
2603200.0 111.48305226643579 1.4366371269005427 38691324.54512591 0 979.9358507033003 0.0020432470039060814
2602200.0 111.48305226643579 1.4369196211198587 40099413.59644026 0 980.5758911811704 0.002044817403570908
2601200.0 111.48305226643579 1.4372022204193837 41508699.44453555 0 981.2164756575775 0.0020463896143994263
2600200.0 111.48305226643579 1.4374849249175177 42919183.336374015 0 981.8576046993221 0.0020479636391778277
2599200.0 111.48305226643579 1.4377677347329405 44330866.52051287 0 982.4992788739308 0.002049539480697663
2598200.0 111.48305226643579 1.4380506499846104 45743750.24710694 0 983.1414987496554 0.002051117141755855
2597200.0 111.48305226643579 1.4383336707917687 47157835.767911255 0 983.7842648954755 0.0020526966251547124
2596200.0 111.48305226643579 1.4386167972739357 48573124.33628368 0 984.4275778810994 0.002054277933701939
2595200.0 111.48305226643579 1.4389000295509156 49989617.207187526 0 985.0714382769647 0.002055861070210649
2594200.0 111.48305226643579 1.4391833677427948 51407315.63719421 0 985.7158466542404 0.0020574460374993783
2593200.0 111.48305226643579 1.4394668119699436 52826220.88448584 0 986.3608035848275 0.002059032838392097
2592200.0 111.48305226643579 1.4397503623530172 54246334.20885791 0 987.0063096413604 0.0020606214757182234
2591200.0 111.48305226643579 1.4400340190129564 55667656.8717219 0 987.6523653972076 0.0020622119523126337
2590200.0 111.48305226643579 1.4403177820709867 57090190.136107974 0 988.298971426474 0.002063804271015678
2589200.0 111.48305226643579 1.4406016516486222 58513935.26666759 0 988.946128304001 0.0020653984346731906
2588200.0 111.48305226643579 1.4408856278676638 59938893.5296762 0 989.5938366053687 0.0020669944461365036
2587200.0 111.48305226643579 1.441169710850201 61365066.1930359 0 990.2420969068957 0.0020685923082624596
2586200.0 111.48305226643579 1.4414539007186133 62792454.52627812 0 990.8909097856422 0.0020701920239134244
2585200.0 111.48305226643579 1.4417381975955692 64221059.80056631 0 991.5402758194097 0.0020717935959572997
2584200.0 111.48305226643579 1.442022601604029 65650883.28869859 0 992.1901955867424 0.0020733970272675366
2583200.0 111.48305226643579 1.4423071128672438 67081926.26511049 0 992.8406696669297 0.002075002320723148
2582200.0 111.48305226643579 1.4425917315087586 68514190.00587763 0 993.4916986400058 0.002076609479208721
2581200.0 111.48305226643579 1.4428764576524102 69947675.7887184 0 994.1432830867514 0.0020782185056144307
2580200.0 111.48305226643579 1.4431612914223308 71382384.89299671 0 994.7954235886962 0.0020798294028360528
2579200.0 111.48305226643579 1.4434462329429467 72818318.5997247 0 995.448120728118 0.0020814421737749764
2578200.0 111.48305226643579 1.4437312823389805 74255478.19156542 0 996.1013750880456 0.002083056821338218
2577200.0 111.48305226643579 1.4440164397354511 75693864.95283565 0 996.7551872522594 0.002084673348438434
2576200.0 111.48305226643579 1.4443017052576743 77133480.16950852 0 997.4095578052924 0.002086291757993933
2575200.0 111.48305226643579 1.4445870790312656 78574325.12921633 0 998.0644873324322 0.0020879120529286904
2574200.0 111.48305226643579 1.4448725611821382 80016401.12125328 0 998.7199764197219 0.0020895342361723613
2573200.0 111.48305226643579 1.445158151836505 81459709.4365782 0 999.3760256539606 0.0020911583106602927
2572200.0 111.48305226643579 1.4454438511208811 82904251.36781734 0 1000.0326356227056 0.0020927842793335375
2571200.0 111.48305226643579 1.4457296591620818 84350028.20926711 0 1000.6898069142735 0.0020944121451388687
2570200.0 111.48305226643579 1.4460155760872253 85797041.25689687 0 1001.3475401177416 0.002096041911028791
2569200.0 111.48305226643579 1.446301602023733 87245291.80835168 0 1002.0058358229485 0.002097673579961555
2568200.0 111.48305226643579 1.44658773709933 88694781.16295512 0 1002.6646946204953 0.0020993071549011712
2567200.0 111.48305226643579 1.4468739814420466 90145510.62171204 0 1003.3241171017486 0.002100942638817423
2566200.0 111.48305226643579 1.447160335180219 91597481.48731141 0 1003.9841038588393 0.00210258003468588
2565200.0 111.48305226643579 1.4474467984424897 93050695.06412904 0 1004.6446554846653 0.0021042193454879118
2564200.0 111.48305226643579 1.4477333713578084 94505152.65823045 0 1005.3057725728934 0.002105860574210701
2563200.0 111.48305226643579 1.4480200540554335 95960855.5773737 0 1005.9674557179583 0.0021075037238472575
2562200.0 111.48305226643579 1.448306846664933 97417805.13101213 0 1006.6297055150668 0.002109148797396432
2561200.0 111.48305226643579 1.4485937493161831 98876002.63029724 0 1007.2925225601963 0.002110795797862929
2560200.0 111.48305226643579 1.4488807621393733 100335449.38808155 0 1007.9559074500984 0.0021124447282573223
2559200.0 111.48305226643579 1.4491678852650027 101796146.71892138 0 1008.6198607822982 0.0021140955915960667
2558200.0 111.48305226643579 1.449455118823884 103258095.93907972 0 1009.2843831550975 0.0021157483909015127
2557200.0 111.48305226643579 1.4497424629471436 104721298.36652908 0 1009.9494751675746 0.0021174031292019208
2556200.0 111.48305226643579 1.4500299177662215 106185755.32095435 0 1010.615137419586 0.002119059809531474
2555200.0 111.48305226643579 1.4503174834128731 107651468.12375568 0 1011.2813705117685 0.0021207184349302933
2554200.0 111.48305226643579 1.4506051600191698 109118438.09805131 0 1011.9481750455393 0.0021223790084444506
2553200.0 111.48305226643579 1.4508929477175003 110586666.56868048 0 1012.6155516230979 0.002124041533125983
2552200.0 111.48305226643579 1.4511808466405711 112056154.8622063 0 1013.2835008474277 0.0021257060120329074
2551200.0 111.48305226643579 1.451468856921407 113526904.30691864 0 1013.9520233222969 0.002127372448229233
2550200.0 111.48305226643579 1.4517569786933524 114998916.23283702 0 1014.6211196522598 0.0021290408447849772
2549200.0 111.48305226643579 1.4520452120900722 116472191.97171356 0 1015.2907904426585 0.002130711204776178
2548200.0 111.48305226643579 1.4523335572455536 117946732.8570358 0 1015.961036299623 0.002132383531284911
2547200.0 111.48305226643579 1.4526220142941044 119422540.22402969 0 1016.6318578300749 0.002134057827399299
2546200.0 111.48305226643579 1.4529105833703575 120899615.40966247 0 1017.3032556417261 0.0021357340962135317
2545200.0 111.48305226643579 1.4531992646092675 122377959.75264564 0 1017.975230343082 0.002137412340827875
2544200.0 111.48305226643579 1.453488058146116 123857574.59343785 0 1018.6477825434421 0.0021390925643486893
2543200.0 111.48305226643579 1.4537769641165095 125338461.27424787 0 1019.3209128529013 0.0021407747698884414
2542200.0 111.48305226643579 1.4540659826563813 126820621.13903752 0 1019.994621882351 0.0021424589605657197
2541200.0 111.48305226643579 1.454355113901993 128304055.53352465 0 1020.6689102434816 0.002144145139505249
2540200.0 111.48305226643579 1.454644357989934 129788765.80518606 0 1021.3437785487822 0.0021458333098379042
2539200.0 111.48305226643579 1.4549337150571229 131274753.30326052 0 1022.0192274115434 0.0021475234747007255
2538200.0 111.48305226643579 1.4552231852408102 132762019.3787517 0 1022.6952574458575 0.002149215637236933
2537200.0 111.48305226643579 1.4555127686785763 134250565.38443115 0 1023.3718692666209 0.00215090980059594
2536200.0 111.48305226643579 1.4558024655083348 135740392.67484137 0 1024.0490634895348 0.0021526059679333708
2535200.0 111.48305226643579 1.4560922758683317 137231502.60629869 0 1024.726840731106 0.0021543041424110713
2534200.0 111.48305226643579 1.4563821998971473 138723896.53689632 0 1025.4052016086505 0.002156004327197127
2533200.0 111.48305226643579 1.4566722377336978 140217575.82650736 0 1026.084146740292 0.002157706525465876
2532200.0 111.48305226643579 1.4569623895172341 141712541.83678785 0 1026.7636767449649 0.0021594107403979236
2531200.0 111.48305226643579 1.457252655387345 143208795.93117973 0 1027.4437922424158 0.0021611169751801595
2530200.0 111.48305226643579 1.4575430354839563 144706339.4749139 0 1028.1244938532038 0.0021628252330057702
2529200.0 111.48305226643579 1.4578335299473335 146205173.83501324 0 1028.8057821987038 0.002164535517074255
2528200.0 111.48305226643579 1.4581241389180808 147705300.38029566 0 1029.4876579011047 0.0021662478305914403
2527200.0 111.48305226643579 1.4584148625371445 149206720.48137718 0 1030.1701215834146 0.002167962176769496
2526200.0 111.48305226643579 1.4587057009458109 150709435.51067495 0 1030.8531738694592 0.0021696785588269495
2525200.0 111.48305226643579 1.4589966542857098 152213446.8424103 0 1031.5368153838842 0.0021713969799887008
2524200.0 111.48305226643579 1.4592877226988148 153718755.85261184 0 1032.2210467521575 0.0021731174434860374
2523200.0 111.48305226643579 1.4595789063274431 155225363.91911852 0 1032.9058686005696 0.0021748399525566508
2522200.0 111.48305226643579 1.4598702053142583 156733272.42158273 0 1033.5912815562351 0.0021765645104446507
2521200.0 111.48305226643579 1.4601616198022696 158242482.74147338 0 1034.2772862470945 0.0021782911204005803
2520200.0 111.48305226643579 1.4604531499348343 159752996.262079 0 1034.9638833019155 0.0021800197856814314
2519200.0 111.48305226643579 1.4607447958556579 161264814.36851084 0 1035.6510733502935 0.002181750509550661
2518200.0 111.48305226643579 1.4610365577087945 162777938.44770598 0 1036.3388570226548 0.002183483295278205
2517200.0 111.48305226643579 1.4613284356386496 164292369.88843045 0 1037.027234950257 0.002185218146140495
2516200.0 111.48305226643579 1.461620429789979 165808110.08128235 0 1037.7162077651897 0.0021869550654204733
2515200.0 111.48305226643579 1.4619125403078919 167325160.41869503 0 1038.4057761003774 0.002188694056407608
2514200.0 111.48305226643579 1.4622047673378498 168843522.29494017 0 1039.0959405895796 0.002190435122397909
2513200.0 111.48305226643579 1.4624971110256688 170363197.10613093 0 1039.7867018673935 0.0021921782666939446
2512200.0 111.48305226643579 1.46278957151752 171884186.25022516 0 1040.4780605692545 0.0021939234926048544
2511200.0 111.48305226643579 1.4630821489599315 173406491.1270285 0 1041.1700173314377 0.0021956708034463683
2510200.0 111.48305226643579 1.4633748434997873 174930113.13819757 0 1041.8625727910603 0.00219742020254082
2509200.0 111.48305226643579 1.4636676552843308 176455053.68724316 0 1042.5557275860808 0.0021991716932171636
2508200.0 111.48305226643579 1.4639605844611645 177981314.17953342 0 1043.2494823553038 0.0022009252788109893
2507200.0 111.48305226643579 1.4642536311782504 179508896.022297 0 1043.943837738378 0.00220268096266454
2506200.0 111.48305226643579 1.4645467955839127 181037800.6246263 0 1044.6387943758004 0.0022044387481267255
2505200.0 111.48305226643579 1.4648400778268365 182568029.3974807 0 1045.3343529089161 0.00220619863855314
2504200.0 111.48305226643579 1.4651334780560716 184099583.75368962 0 1046.0305139799202 0.0022079606373060774
2503200.0 111.48305226643579 1.4654269964210316 185632465.10795596 0 1046.7272782318596 0.002209724747754548
2502200.0 111.48305226643579 1.465720633071495 187166674.87685916 0 1047.4246463086336 0.0022114909732742945
2501200.0 111.48305226643579 1.466014388157607 188702214.4788585 0 1048.122618854997 0.0022132593172478066
2500200.0 111.48305226643579 1.4663082618298806 190239085.33429635 0 1048.8211965165597 0.0022150297830643394
2499200.0 111.48305226643579 1.4666022542391963 191777288.8654014 0 1049.520379939789 0.0022168023741199285
2498200.0 111.48305226643579 1.4668963655368044 193316826.49629188 0 1050.2201697720122 0.0022185770938174068
2497200.0 111.48305226643579 1.4671905958743254 194857699.6529789 0 1050.9205666614155 0.0022203539455664194
2496200.0 111.48305226643579 1.467484945403752 196399909.7633697 0 1051.6215712570477 0.0022221329327834424
2495200.0 111.48305226643579 1.4677794142774492 197943458.2572709 0 1052.3231842088207 0.0022239140588917973
2494200.0 111.48305226643579 1.4680740026481547 199488346.5663918 0 1053.025406167512 0.002225697327321668
2493200.0 111.48305226643579 1.4683687106689822 201034576.12434766 0 1053.7282377847648 0.002227482741510118
2492200.0 111.48305226643579 1.4686635384934201 202582148.36666307 0 1054.43167971309 0.002229270304901106
2491200.0 111.48305226643579 1.4689584862753338 204131064.73077518 0 1055.135732605868 0.002231060020945503
2490200.0 111.48305226643579 1.4692535541689664 205681326.65603703 0 1055.840397117351 0.0022328518931011097
2489200.0 111.48305226643579 1.4695487423289406 207232935.58372092 0 1056.5456739026617 0.002234645924832671
2488200.0 111.48305226643579 1.4698440509102582 208785892.9570217 0 1057.2515636177984 0.002236442119611895
2487200.0 111.48305226643579 1.470139480068302 210340200.2210602 3 1155.3582972899917 0.002238240480917469
2486200.0 112.03751740062727 1.4703533387031422 212038985.1508789 3 1155.3819991289572 0.002240041012235076
2485200.0 112.59334415335594 1.470567825663756 213738052.74514902 3 1155.405734360872 0.0022418437170574125
2484200.0 113.15053982602689 1.4707829419500629 215437403.7902783 3 1155.429503160146 0.0022436485988842035
2483200.0 113.70911178612698 1.4709986885638828 217137039.07415488 3 1155.453305702731 0.0022454556612222223
2482200.0 114.26906746807802 1.4712150665089418 218836959.3861523 3 1155.477142166143 0.002247264907585305
2481200.0 114.83041437410401 1.4714320767908742 220537165.51713422 3 1155.5010127294786 0.0022490763414943697
2480200.0 115.39316007511314 1.4716497204172252 222237658.25945938 3 1155.524917573438 0.002250889966477431
2479200.0 115.95731221159468 1.4718679983974559 223938438.40698656 3 1155.5488568803457 0.00225270578606962
2478200.0 116.52287849453096 1.4720869117429474 225639506.75507966 3 1155.5728308341704 0.0022545238038131996
2477200.0 117.08986670632503 1.472306461467002 227340864.10061252 3 1155.5968396205487 0.002256344023257583
2476200.0 117.65828470174405 1.472526648584849 229042511.2419742 3 1155.6208834268043 0.00225816644795935
2475200.0 118.22814040887897 1.4727474741136466 230744448.979074 3 1155.6449624419724 0.0022599910814822648
2474200.0 118.79944183012066 1.4729689390724856 232446678.1133466 3 1155.669076856822 0.0022618179273972937
2473200.0 119.37219704315292 1.4731910444823948 234149199.4477573 3 1155.693226863878 0.002263646989282622
2472200.0 119.94641420196281 1.4734137913663414 235852013.7868072 3 1155.7174126574453 0.0022654782707236727
2471200.0 120.52210153786848 1.4736371807492372 237555121.93653852 3 1155.7416344336336 0.002267311775313122
2470200.0 121.09926736056505 1.47386121365794 239258524.7045399 3 1155.76589239038 0.002269147506650919
2469200.0 121.67792005918882 1.4740858911212595 240962222.89995173 3 1155.7901867274747 0.0022709854683443022
2468200.0 122.2580681034003 1.474311214169957 242666217.33347163 3 1155.8145176465864 0.0022728256640078175
2467200.0 122.83972004448637 1.4745371838367536 244370508.81735986 3 1155.838885351287 0.0022746680972633364
2466200.0 123.422884516482 1.4747638011563298 246075098.16544482 3 1155.863290047078 0.0022765127717400725
2465200.0 124.00757023731207 1.4749910671653301 247779986.1931286 3 1155.8877319414178 0.0022783596910746014
2464200.0 124.5937860099536 1.4752189829023667 249485173.71739253 3 1155.9122112437478 0.0022802088589108766
2463200.0 125.18154072361892 1.475447549408024 251190661.55680293 3 1155.9367281655202 0.002282060278900249
2462200.0 125.77084335496014 1.4756767677248592 252896450.53151667 3 1155.961282920226 0.002283913954701484
2461200.0 126.36170296929555 1.4759066388974085 254602541.463287 3 1155.9858757234235 0.0022857698899807796
2460200.0 126.95412872185834 1.4761371639721892 256308935.17546928 3 1156.0105067927666 0.002287628088411786
2459200.0 127.54812985906811 1.4763683439977022 258015632.49302685 3 1156.035176348036 0.002289488553675621
2458200.0 128.1437157198258 1.4766001800244377 259722634.24253693 3 1156.0598846111673 0.0022913512894608915
2457200.0 128.74089573683236 1.476832673104876 261429941.25219655 3 1156.0846318062836 0.0022932162994637084
2456200.0 129.33967943793206 1.4770658242934926 263137554.35182855 3 1156.1094181597248 0.0022950835873877078
2455200.0 129.94007644748058 1.4772996346467606 264845474.37288758 3 1156.1342439000807 0.002296953156944068
2454200.0 130.54209648773872 1.4775341052231554 266553702.14846635 3 1156.1591092582228 0.002298825011851528
2453200.0 131.14574938029224 1.477769237083156 268262238.5133016 3 1156.1840144673376 0.002300699155836406
2452200.0 131.75104504749842 1.4780050312892488 269971084.30378056 3 1156.20895976296 0.0023025755926326186
2451200.0 132.35799351396003 1.4782414889059319 271680240.35794693 3 1156.2339453830075 0.0023044543259816987
2450200.0 132.9666049080272 1.4784786109997186 273389707.5155075 3 1156.258971567815 0.0023063353596328145
2449200.0 133.57688946332797 1.4787163986391376 275099486.61783844 3 1156.284038560171 0.0023082186973427876
2448200.0 134.1888575203283 1.4789548528947412 276809578.50799173 3 1156.3091466053527 0.0023101043428761124
