rayon temp g pression etat
2631200.0 110.0 1.4286205756499109 0.0 1 917
2631100.0 110.04929153796809 1.4286522622675983 131007.41244993877 1 917
2631000.0 110.09859400965303 1.4286839554217166 262017.73116211017 1 917
2630900.0 110.14790742026568 1.42871565511326 393030.9567359961 1 917
2630800.0 110.19723177502108 1.4287473613432216 524047.0897711695 1 917
2630700.0 110.24656707913842 1.428779074112596 655066.1308672946 1 917
2630600.0 110.29591333784107 1.428810793422378 786088.0806241267 1 917
2630500.0 110.3452705563566 1.4288425192735612 917112.9396415122 1 917
2630400.0 110.39463873991674 1.4288742516671415 1048140.7085193892 1 917
2630300.0 110.44401789375743 1.428905990604113 1179171.3878577864 1 917
2630200.0 110.4934080231188 1.4289377360854714 1310204.9782568242 1 917
2630100.0 110.54280913324519 1.4289694881122117 1441241.480316714 1 917
2630000.0 110.5922212293851 1.4290012466853292 1572280.8946377586 1 917
2629900.0 110.64164431679131 1.4290330118058197 1703323.2218203524 1 917
2629800.0 110.69107840072077 1.4290647834746797 1834368.4624649805 1 917
2629700.0 110.74052348643465 1.4290965616929048 1965416.61717222 1 917
2629600.0 110.78997957919837 1.4291283464614915 2096467.6865427387 1 917
2629500.0 110.83944668428155 1.4291601377814354 2227521.6711772964 1 917
2629400.0 110.88892480695807 1.4291919356537344 2358578.5716767437 1 917
2629300.0 110.93841395250604 1.4292237400793846 2489638.3886420233 1 917
2629200.0 110.9879141262078 1.4292555510593832 2620701.1226741686 1 917
2629100.0 111.03742533334996 1.4292873685947272 2751766.774374305 1 917
2629000.0 111.08694757922336 1.4293191926864144 2882835.344343649 1 917
2628900.0 111.13648086912312 1.429351023335442 3013906.8331835093 1 917
2628800.0 111.18602520834861 1.4293828605428085 3144981.2414952847 1 917
2628700.0 111.23558060220348 1.4294147043095113 3276058.569880467 1 917
2628600.0 111.28514705599565 1.4294465546365485 3407138.8189406386 1 917
2628500.0 111.33472457503731 1.4294784115249186 3538221.9892774737 0 963.9264638912497
2628400.0 111.33472457503731 1.4295063391720333 3676015.888340296 0 963.9890974817329
2628300.0 111.33472457503731 1.4295342678297907 3813821.433206741 0 964.0517363657631
2628200.0 111.33472457503731 1.4295621974983006 3951638.6250808504 0 964.1143805438877
2628100.0 111.33472457503731 1.4295901281776726 4089467.465166818 0 964.1770300166542
2628000.0 111.33472457503731 1.4296180598680164 4227307.954668989 0 964.2396847846095
2627900.0 111.33472457503731 1.4296459925694414 4365160.094791863 0 964.3023448483017
2627800.0 111.33472457503731 1.4296739262820575 4503023.886740089 0 964.3650102082781
2627700.0 111.33472457503731 1.4297018610059746 4640899.331718472 0 964.4276808650867
2627600.0 111.33472457503731 1.4297297967413023 4778786.430931965 0 964.4903568192747
2627500.0 111.33472457503731 1.4297577334881504 4916685.185585675 0 964.5530380713898
2627400.0 111.33472457503731 1.4297856712466284 5054595.5968848625 0 964.6157246219805
2627300.0 111.33472457503731 1.4298136100168468 5192517.66603494 0 964.678416471594
2627200.0 111.33472457503731 1.4298415497989148 5330451.394241471 0 964.7411136207788
2627100.0 111.33472457503731 1.4298694905929428 5468396.782710172 0 964.8038160700829
2627000.0 111.33472457503731 1.42989743239904 5606353.832646913 0 964.866523820054
2626900.0 111.33472457503731 1.429925375217317 5744322.545257715 0 964.9292368712407
2626800.0 111.33472457503731 1.4299533190478837 5882302.921748752 0 964.9919552241912
2626700.0 111.33472457503731 1.42998126389085 6020294.963326351 0 965.0546788794538
2626600.0 111.33472457503731 1.430009209746326 6158298.671196991 0 965.1174078375768
2626500.0 111.33472457503731 1.4300371566144212 6296314.046567303 0 965.1801420991088
2626400.0 111.33472457503731 1.4300651044952464 6434341.090644073 0 965.2428816645981
2626300.0 111.33472457503731 1.4300930533889111 6572379.804634237 0 965.3056265345938
2626200.0 111.33472457503731 1.4301210032955256 6710430.189744883 0 965.3683767096442
2626100.0 111.33472457503731 1.4301489542152002 6848492.247183256 0 965.431132190298
2626000.0 111.33472457503731 1.4301769061480452 6986565.978156748 0 965.493892977104
2625900.0 111.33472457503731 1.4302048590941705 7124651.383872909 0 965.5566590706113
2625800.0 111.33472457503731 1.4302328130536863 7262748.465539437 0 965.6194304713688
2625700.0 111.33472457503731 1.430260768026703 7400857.224364186 0 965.6822071799256
2625600.0 111.33472457503731 1.430288724013331 7538977.661555161 0 965.7449891968306
2625500.0 111.33472457503731 1.43031668101368 7677109.778320521 0 965.8077765226329
2625400.0 111.33472457503731 1.4303446390278611 7815253.575868578 0 965.8705691578822
2625300.0 111.33472457503731 1.4303725980559843 7953409.055407795 0 965.9333671031271
2625200.0 111.33472457503731 1.4304005580981596 8091576.21814679 0 965.9961703589178
2625100.0 111.33472457503731 1.430428519154498 8229755.065294332 0 966.058978925803
2625000.0 111.33472457503731 1.4304564812251097 8367945.598059344 0 966.1217928043324
2624900.0 111.33472457503731 1.4304844443101052 8506147.817650903 0 966.1846119950559
2624800.0 111.33472457503731 1.4305124084095948 8644361.725278236 0 966.2474364985229
2624700.0 111.33472457503731 1.430540373523689 8782587.322150726 0 966.3102663152831
2624600.0 111.33472457503731 1.4305683396524986 8920824.609477907 0 966.3731014458863
2624500.0 111.33472457503731 1.430596306796134 9059073.588469468 0 966.4359418908825
2624400.0 111.33472457503731 1.4306242749547056 9197334.26033525 0 966.4987876508216
2624300.0 111.33472457503731 1.4306522441283245 9335606.626285246 0 966.5616387262532
2624200.0 111.33472457503731 1.430680214317101 9473890.687529601 0 966.6244951177281
2624100.0 111.33472457503731 1.4307081855211454 9612186.445278618 0 966.6873568257956
2624000.0 111.33472457503731 1.430736157740569 9750493.90074275 0 966.7502238510066
2623900.0 111.33472457503731 1.4307641309754824 9888813.055132605 0 966.8130961939112
2623800.0 111.33472457503731 1.4307921052259962 10027143.90965894 0 966.8759738550597
2623700.0 111.33472457503731 1.430820080492221 10165486.46553267 0 966.9388568350022
2623600.0 111.33472457503731 1.4308480567742679 10303840.723964859 0 967.0017451342896
2623500.0 111.33472457503731 1.4308760340722475 10442206.686166728 0 967.0646387534723
2623400.0 111.33472457503731 1.4309040123862709 10580584.35334965 0 967.1275376931007
2623300.0 111.33472457503731 1.4309319917164487 10718973.726725152 0 967.190441953726
2623200.0 111.33472457503731 1.4309599720628916 10857374.807504911 0 967.2533515358986
2623100.0 111.33472457503731 1.430987953425711 10995787.596900763 0 967.3162664401696
2623000.0 111.33472457503731 1.4310159358050178 11134212.096124692 0 967.3791866670894
2622900.0 111.33472457503731 1.4310439192009228 11272648.30638884 0 967.4421122172095
2622800.0 111.33472457503731 1.4310719036135369 11411096.228905499 0 967.5050430910808
2622700.0 111.33472457503731 1.4310998890429714 11549555.864887115 0 967.5679792892543
2622600.0 111.33472457503731 1.4311278754893368 11688027.21554629 0 967.630920812281
2622500.0 111.33472457503731 1.431155862952745 11826510.282095775 0 967.6938676607127
2622400.0 111.33472457503731 1.4311838514333062 11965005.06574848 0 967.7568198351003
2622300.0 111.33472457503731 1.4312118409311323 12103511.567717465 0 967.8197773359954
2622200.0 111.33472457503731 1.431239831446334 12242029.789215945 0 967.8827401639492
2622100.0 111.33472457503731 1.4312678229790226 12380559.731457287 0 967.9457083195133
2622000.0 111.33472457503731 1.4312958155293094 12519101.395655015 0 968.0086818032396
2621900.0 111.33472457503731 1.4313238090973057 12657654.783022802 0 968.0716606156794
2621800.0 111.33472457503731 1.4313518036831225 12796219.89477448 0 968.1346447573849
2621700.0 111.33472457503731 1.431379799286871 12934796.732124029 0 968.1976342289074
2621600.0 111.33472457503731 1.4314077959086628 13073385.296285586 0 968.2606290307989
2621500.0 111.33472457503731 1.4314357935486093 13211985.588473445 0 968.3236291636115
2621400.0 111.33472457503731 1.4314637922068216 13350597.609902047 0 968.3866346278974
2621300.0 111.33472457503731 1.4314917918834111 13489221.36178599 0 968.4496454242081
2621200.0 111.33472457503731 1.4315197925784895 13627856.845340027 0 968.5126615530963
2621100.0 111.33472457503731 1.4315477942921677 13766504.061779063 0 968.5756830151142
2621000.0 111.33472457503731 1.4315757970245577 13905163.01231816 0 968.6387098108138
2620900.0 111.33472457503731 1.431603800775771 14043833.69817253 0 968.7017419407475
2620800.0 111.33472457503731 1.431631805545919 14182516.120557541 0 968.764779405468
2620700.0 111.33472457503731 1.4316598113351124 14321210.280688714 0 968.8278222055276
2620600.0 111.33472457503731 1.4316878181434642 14459916.179781726 0 968.890870341479
2620500.0 111.33472457503731 1.4317158259710852 14598633.819052406 0 968.9539238138747
2620400.0 111.33472457503731 1.4317438348180873 14737363.199716737 0 969.0169826232675
2620300.0 111.33472457503731 1.4317718446845817 14876104.322990857 0 969.0800467702103
2620200.0 111.33472457503731 1.4317998555706803 15014857.190091059 0 969.1431162552559
2620100.0 111.33472457503731 1.4318278674764953 15153621.802233787 0 969.2061910789571
2620000.0 111.33472457503731 1.4318558804021377 15292398.160635643 0 969.2692712418672
2619900.0 111.33472457503731 1.4318838943477197 15431186.266513381 0 969.3323567445389
2619800.0 111.33472457503731 1.4319119093133525 15569986.12108391 0 969.3954475875255
2619700.0 111.33472457503731 1.4319399252991487 15708797.725564292 0 969.45854377138
2619600.0 111.33472457503731 1.43196794230522 15847621.081171744 0 969.5216452966562
2619500.0 111.33472457503731 1.4319959603316776 15986456.189123636 0 969.5847521639072
2619400.0 111.33472457503731 1.432023979378634 16125303.050637497 0 969.6478643736862
2619300.0 111.33472457503731 1.432051999446201 16264161.666931003 0 969.7109819265468
2619200.0 111.33472457503731 1.4320800205344906 16403032.039221993 0 969.7741048230429
2619100.0 111.33472457503731 1.4321080426436144 16541914.168728452 0 969.8372330637275
2619000.0 111.33472457503731 1.4321360657736848 16680808.056668524 0 969.9003666491548
2618900.0 111.33472457503731 1.4321640899248134 16819713.704260506 0 969.9635055798785
2618800.0 111.33472457503731 1.4321921150971126 16958631.11272285 0 970.0266498564523
2618700.0 111.33472457503731 1.4322201412906943 17097560.283274166 0 970.0897994794302
2618600.0 111.33472457503731 1.4322481685056707 17236501.217133213 0 970.1529544493661
2618500.0 111.33472457503731 1.432276196742154 17375453.915518902 0 970.216114766814
2618400.0 111.33472457503731 1.4323042260002559 17514418.37965031 0 970.2792804323284
2618300.0 111.33472457503731 1.4323322562800893 17653394.610746656 0 970.3424514464631
2618200.0 111.33472457503731 1.4323602875817656 17792382.61002732 0 970.4056278097723
2618100.0 111.33472457503731 1.4323883199053977 17931382.37871184 0 970.468809522811
2618000.0 111.33472457503731 1.4324163532510974 18070393.9180199 0 970.5319965861328
2617900.0 111.33472457503731 1.4324443876189772 18209417.229171343 0 970.5951890002924
2617800.0 111.33472457503731 1.4324724230091492 18348452.313386172 0 970.6583867658447
2617700.0 111.33472457503731 1.4325004594217263 18487499.171884533 0 970.7215898833439
2617600.0 111.33472457503731 1.4325284968568202 18626557.805886738 0 970.7847983533449
2617500.0 111.33472457503731 1.4325565353145437 18765628.216613248 0 970.8480121764024
2617400.0 111.33472457503731 1.4325845747950088 18904710.40528468 0 970.9112313530712
2617300.0 111.33472457503731 1.432612615298328 19043804.373121805 0 970.9744558839062
2617200.0 111.33472457503731 1.4326406568246144 19182910.12134555 0 971.0376857694624
2617100.0 111.33472457503731 1.43266869937398 19322027.651176997 0 971.100921010295
2617000.0 111.33472457503731 1.432696742946537 19461156.96383738 0 971.1641616069588
2616900.0 111.33472457503731 1.4327247875423985 19600298.060548093 0 971.2274075600092
2616800.0 111.33472457503731 1.432752833161677 19739450.94253068 0 971.2906588700013
2616700.0 111.33472457503731 1.432780879804485 19878615.611006845 0 971.3539155374904
2616600.0 111.33472457503731 1.432808927470935 20017792.06719844 0 971.417177563032
2616500.0 111.33472457503731 1.4328369761611397 20156980.31232748 0 971.4804449471817
2616400.0 111.33472457503731 1.4328650258752116 20296180.347616132 0 971.5437176904946
2616300.0 111.33472457503731 1.432893076613264 20435392.174286716 0 971.6069957935267
2616200.0 111.33472457503731 1.432921128375409 20574615.793561704 0 971.6702792568335
2616100.0 111.33472457503731 1.4329491811617598 20713851.206663735 0 971.7335680809709
2616000.0 111.33472457503731 1.4329772349724286 20853098.41481559 0 971.7968622664943
2615900.0 111.33472457503731 1.433005289807529 20992357.419240214 0 971.8601618139602
2615800.0 111.33472457503731 1.4330333456671733 21131628.221160702 0 971.9234667239241
2615700.0 111.33472457503731 1.4330614025514745 21270910.82180031 0 971.9867769969419
2615600.0 111.33472457503731 1.4330894604605455 21410205.222382445 0 972.0500926335702
2615500.0 111.33472457503731 1.4331175193944992 21549511.424130667 0 972.1134136343647
2615400.0 111.33472457503731 1.4331455793534484 21688829.428268693 0 972.1767399998822
2615300.0 111.33472457503731 1.4331736403375062 21828159.2360204 0 972.2400717306783
2615200.0 111.33472457503731 1.4332017023467858 21967500.848609816 0 972.3034088273099
2615100.0 111.33472457503731 1.4332297653813997 22106854.267261125 0 972.3667512903334
2615000.0 111.33472457503731 1.4332578294414615 22246219.493198667 0 972.4300991203047
2614900.0 111.33472457503731 1.433285894527084 22385596.527646936 0 972.4934523177812
2614800.0 111.33472457503731 1.4333139606383805 22524985.371830586 0 972.5568108833194
2614700.0 111.33472457503731 1.4333420277754636 22664386.02697442 0 972.6201748174757
2614600.0 111.33472457503731 1.433370095938447 22803798.4943034 0 972.683544120807
2614500.0 111.33472457503731 1.433398165127444 22943222.775042646 0 972.7469187938702
2614400.0 111.33472457503731 1.433426235342567 23082658.870417424 0 972.8102988372225
2614300.0 111.33472457503731 1.43345430658393 23222106.781653166 0 972.8736842514205
2614200.0 111.33472457503731 1.433482378851646 23361566.509975456 0 972.9370750370216
2614100.0 111.33472457503731 1.4335104521458282 23501038.056610033 0 973.0004711945828
2614000.0 111.33472457503731 1.43353852646659 23640521.42278279 0 973.0638727246612
2613900.0 111.33472457503731 1.433566601814045 23780016.60971978 0 973.1272796278146
2613800.0 111.33472457503731 1.4335946781883058 23919523.61864721 0 973.1906919045996
2613700.0 111.33472457503731 1.4336227555894867 24059042.45079144 0 973.2541095555742
2613600.0 111.33472457503731 1.4336508340177003 24198573.10737899 0 973.317532581296
2613500.0 111.33472457503731 1.433678913473061 24338115.589636534 0 973.3809609823221
2613400.0 111.33472457503731 1.4337069939556817 24477669.8987909 0 973.4443947592104
2613300.0 111.33472457503731 1.4337350754656755 24617236.036069073 0 973.5078339125187
2613200.0 111.33472457503731 1.4337631580031567 24756814.002698194 0 973.5712784428046
2613100.0 111.33472457503731 1.4337912415682386 24896403.799905565 0 973.6347283506261
2613000.0 111.33472457503731 1.4338193261610344 25036005.428918634 0 973.6981836365412
2612900.0 111.33472457503731 1.4338474117816582 25175618.89096501 0 973.7616443011077
2612800.0 111.33472457503731 1.4338754984302233 25315244.18727246 0 973.8251103448838
2612700.0 111.33472457503731 1.4339035861068437 25454881.3190689 0 973.8885817684277
2612600.0 111.33472457503731 1.4339316748116326 25594530.287582412 0 973.9520585722973
2612500.0 111.33472457503731 1.4339597645447044 25734191.09404123 0 974.0155407570514
2612400.0 111.33472457503731 1.4339878553061722 25873863.739673737 0 974.079028323248
2612300.0 111.33472457503731 1.4340159470961502 26013548.225708485 0 974.1425212714456
2612200.0 111.33472457503731 1.4340440399147518 26153244.553374168 0 974.2060196022029
2612100.0 111.33472457503731 1.434072133762091 26292952.723899648 0 974.2695233160781
2612000.0 111.33472457503731 1.4341002286382818 26432672.73851394 0 974.3330324136299
2611900.0 111.33472457503731 1.4341283245434377 26572404.59844621 0 974.3965468954175
2611800.0 111.33472457503731 1.4341564214776734 26712148.30492578 0 974.460066761999
2611700.0 111.33472457503731 1.4341845194411018 26851903.85918214 0 974.5235920139337
2611600.0 111.33472457503731 1.4342126184338375 26991671.26244493 0 974.5871226517804
2611500.0 111.33472457503731 1.4342407184559944 27131450.515943933 0 974.6506586760981
2611400.0 111.33472457503731 1.4342688195076863 27271241.62090911 0 974.714200087446
2611300.0 111.33472457503731 1.434296921589027 27411044.578570563 0 974.7777468863829
2611200.0 111.33472457503731 1.4343250247001316 27550859.39015856 0 974.8412990734685
2611100.0 111.33472457503731 1.434353128841113 27690686.056903515 0 974.9048566492615
2611000.0 111.33472457503731 1.4343812340120863 27830524.58003601 0 974.9684196143218
2610900.0 111.33472457503731 1.434409340213165 27970374.960786775 0 975.0319879692087
2610800.0 111.33472457503731 1.4344374474444634 28110237.2003867 0 975.0955617144812
2610700.0 111.33472457503731 1.4344655557060955 28250111.30006683 0 975.1591408506995
2610600.0 111.33472457503731 1.434493664998176 28389997.261058368 0 975.2227253784229
2610500.0 111.33472457503731 1.434521775320819 28529895.084592674 0 975.2863152982112
2610400.0 111.33472457503731 1.4345498866741386 28669804.77190126 0 975.3499106106243
2610300.0 111.33472457503731 1.4345779990582492 28809726.324215803 0 975.4135113162216
2610200.0 111.33472457503731 1.434606112473265 28949659.74276813 0 975.4771174155636
2610100.0 111.33472457503731 1.4346342269193006 29089605.028790224 0 975.5407289092102
2610000.0 111.33472457503731 1.4346623423964702 29229562.18351423 0 975.6043457977211
2609900.0 111.33472457503731 1.4346904589048883 29369531.208172444 0 975.6679680816567
2609800.0 111.33472457503731 1.4347185764446695 29509512.103997324 0 975.7315957615771
2609700.0 111.33472457503731 1.434746695015928 29649504.872221477 0 975.7952288380425
2609600.0 111.33472457503731 1.4347748146187782 29789509.514077675 0 975.8588673116135
2609500.0 111.33472457503731 1.4348029352533351 29929526.030798845 0 975.9225111828505
2609400.0 111.33472457503731 1.4348310569197125 30069554.423618067 0 975.9861604523137
2609300.0 111.33472457503731 1.4348591796180257 30209594.693768583 0 976.0498151205638
2609200.0 111.33472457503731 1.4348873033483893 30349646.84248379 0 976.1134751881617
2609100.0 111.33472457503731 1.4349154281109173 30489710.870997235 0 976.1771406556678
2609000.0 111.33472457503731 1.4349435539057247 30629786.78054263 0 976.240811523643
2608900.0 111.33472457503731 1.4349716807329262 30769874.572353847 0 976.3044877926482
2608800.0 111.33472457503731 1.4349998085926368 30909974.247664906 0 976.368169463244
2608700.0 111.33472457503731 1.4350279374849708 31050085.80770999 0 976.4318565359918
2608600.0 111.33472457503731 1.4350560674100425 31190209.25372343 0 976.4955490114525
2608500.0 111.33472457503731 1.435084198367968 31330344.58693973 0 976.5592468901872
2608400.0 111.33472457503731 1.4351123303588613 31470491.808593538 0 976.622950172757
2608300.0 111.33472457503731 1.4351404633828373 31610650.919919662 0 976.6866588597236
2608200.0 111.33472457503731 1.435168597440011 31750821.92215307 0 976.7503729516478
2608100.0 111.33472457503731 1.4351967325304968 31891004.816528887 0 976.8140924490914
2608000.0 111.33472457503731 1.4352248686544105 32031199.60428239 0 976.8778173526156
2607900.0 111.33472457503731 1.4352530058118664 32171406.28664902 0 976.9415476627823
2607800.0 111.33472457503731 1.4352811440029798 32311624.864864368 0 977.0052833801528
2607700.0 111.33472457503731 1.4353092832278656 32451855.34016419 0 977.0690245052891
